Messtemperatur      21∞C
U-Bereich           -1.5V   bis 2V
Anzahl der Meﬂpunkte     200
delay nach Einstellen der Spannung  s
Strombegrenzung     1 A
Kontakt             x
Beleuchtung         d
Kommentar eingeben

voltage / V   current / A   time

-1.5	-4.272057E-06	13191.36
-1.4825	-1.291888E-06	13191.92
-1.465	2.634257E-06	13192.46
-1.4475	5.927885E-06	13193
-1.43	8.015691E-06	13193.55
-1.4125	1.326919E-05	13194.24
-1.395	1.637355E-05	13194.8
-1.3775	2.032008E-05	13195.35
-1.36	2.346158E-05	13195.89
-1.3425	2.721001E-05	13196.44
-1.325	3.04682E-05	13196.99
-1.3075	3.409683E-05	13197.54
-1.29	3.7596E-05	13198.08
-1.2725	4.093962E-05	13198.63
-1.255	4.491102E-05	13199.18
-1.2375	4.78045E-05	13199.72
-1.22	5.147939E-05	13200.27
-1.2025	5.490397E-05	13200.82
-1.185	5.845284E-05	13201.36
-1.1675	6.170674E-05	13201.91
-1.15	6.542097E-05	13202.46
-1.1325	6.8667E-05	13203
-1.115	7.21536E-05	13203.55
-1.0975	7.576122E-05	13204.1
-1.08	7.927649E-05	13204.65
-1.0625	8.307424E-05	13205.19
-1.045	8.605681E-05	13205.74
-1.0275	8.997206E-05	13206.29
-1.01	9.329487E-05	13206.83
-0.9925	9.679893E-05	13207.38
-0.975	0.0001001434	13208.06
-0.9575	0.0001036649	13208.63
-0.94	0.0001070254	13209.17
-0.9225	0.0001104097	13209.72
-0.905	0.0001140715	13210.27
-0.8875	0.000117375	13210.82
-0.87	0.0001211604	13211.36
-0.8525	0.0001240842	13211.91
-0.835	0.0001280613	13212.46
-0.8175	0.0001316083	13213
-0.8	0.000134984	13213.55
-0.7825	0.000138842	13214.1
-0.765	0.0001421999	13214.64
-0.7475	0.0001456312	13215.19
-0.73	0.0001492197	13215.74
-0.7125	0.0001528396	13216.29
-0.695	0.0001561956	13216.83
-0.6775	0.0001595902	13217.38
-0.66	0.0001631968	13217.93
-0.6425	0.0001669686	13218.47
-0.625	0.0001704064	13219.02
-0.6075	0.0001739394	13219.57
-0.59	0.0001774885	13220.11
-0.5725	0.0001807768	13220.66
-0.555	0.0001845882	13221.21
-0.5375	0.0001878076	13221.75
-0.52	0.0001914752	13222.3
-0.5025	0.0001948139	13222.85
-0.485	0.000198393	13223.39
-0.4675	0.0002018179	13223.94
-0.45	0.0002051708	13224.49
-0.4325	0.0002089395	13225.04
-0.415	0.0002122728	13225.58
-0.3975	0.0002158646	13226.13
-0.38	0.000219296	13226.68
-0.3625	0.0002226698	13227.22
-0.345	0.0002261689	13227.77
-0.3275	0.0002298348	13228.32
-0.31	0.0002331858	13228.86
-0.2925	0.000236741	13229.41
-0.275	0.0002404956	13229.96
-0.2575	0.0002440856	13230.5
-0.24	0.0002475402	13231.05
-0.2225	0.0002508183	13231.6
-0.205	0.0002546577	13232.15
-0.1875	0.0002577043	13232.69
-0.17	0.0002616707	13233.24
-0.1525	0.0002649452	13233.79
-0.135	0.0002683844	13234.33
-0.1175	0.0002720121	13234.88
-0.1	0.0002752309	13235.43
-0.0825	0.0002787812	13235.98
-0.065	0.0002821567	13236.52
-0.0475	0.0002858325	13237.07
-0.03	0.0002892994	13237.62
-0.0125	0.0002926956	13240.31
0.005	0.0002960722	13240.86
0.0225	0.0002996165	13241.41
0.04	0.0003030532	13241.95
0.0575	0.000306432	13242.5
0.075	0.0003100476	13243.05
0.0925	0.0003133045	13243.59
0.11	0.00031706	13244.14
0.1275	0.0003201336	13244.69
0.145	0.0003238856	13245.24
0.1625	0.0003273518	13245.78
0.18	0.0003308204	13246.33
0.1975	0.0003343691	13246.88
0.215	0.0003378678	13247.42
0.2325	0.0003414165	13247.97
0.25	0.000344736	13248.52
0.2675	0.0003483228	13249.06
0.285	0.0003517235	13249.61
0.3025	0.0003552856	13250.16
0.32	0.0003586867	13250.71
0.3375	0.0003623439	13251.25
0.355	0.0003653681	13253.68
0.3725	0.0003690679	13254.25
0.39	0.0003722725	13254.79
0.4075	0.0003759487	13255.34
0.425	0.0003792236	13255.89
0.4425	0.0003826556	13256.43
0.46	0.0003862313	13256.98
0.4775	0.0003895746	13257.53
0.495	0.0003932697	13258.07
0.5125	0.0003964403	13258.62
0.53	0.0004001716	13259.17
0.5475	0.0004034467	13259.71
0.565	0.0004073814	13260.26
0.5825	0.0004109521	13260.81
0.6	0.0004142014	13261.36
0.6175	0.0004178138	13261.9
0.635	0.0004211697	13262.45
0.6525	0.0004248669	13263
0.67	0.000428059	13263.54
0.6875	0.0004317442	13264.09
0.705	0.0004350954	13264.64
0.7225	0.0004385333	13265.19
0.74	0.0004421226	13265.73
0.7575	0.0004458561	13266.28
0.775	0.0004491618	13266.83
0.7925	0.000452877	13267.37
0.81	0.0004553691	13267.92
0.8275	0.0004595151	13268.47
0.845	0.0004632261	13269.02
0.8625	0.0004665672	13269.56
0.88	0.0004703106	13270.11
0.8975	0.0004735808	13270.66
0.915	0.0004772538	13271.2
0.9325	0.0004803593	13271.75
0.95	0.0004840492	13272.3
0.9675	0.000487551	13272.84
0.985	0.0004908397	13273.39
1.0025	0.0004945546	13273.93
1.02	0.0004979351	13274.48
1.0375	0.0005017059	13275.03
1.055	0.0005050637	13275.58
1.0725	0.0005086946	13276.12
1.09	0.0005120225	13276.67
1.1075	0.0005155834	13277.22
1.125	0.0005190762	13281.84
1.1425	0.0005225113	13282.41
1.16	0.0005259187	13282.96
1.1775	0.0005292117	13283.5
1.195	0.0005328614	13284.05
1.2125	0.0005360527	13284.6
1.23	0.0005392858	13285.15
1.2475	0.0005429732	13285.69
1.265	0.000546483	13286.24
1.2825	0.0005495423	13286.79
1.3	0.0005532785	13287.33
1.3175	0.0005564564	13287.88
1.335	0.0005598781	13288.43
1.3525	0.0005637286	13288.98
1.37	0.000567016	13289.52
1.3875	0.0005705282	13290.07
1.405	0.000573721	13290.62
1.4225	0.0005775292	13291.16
1.44	0.0005807146	13291.71
1.4575	0.0005844184	13292.26
1.475	0.0005876375	13292.8
1.4925	0.0005911218	13293.35
1.51	0.0005950268	13293.9
1.5275	0.000598349	13294.45
1.545	0.0006018978	13294.99
1.5625	0.0006051327	13295.54
1.58	0.000608849	13296.09
1.5975	0.000612177	13296.63
1.615	0.0006155865	13297.18
1.6325	0.0006191919	13297.73
1.65	0.0006225005	13298.27
1.6675	0.0006258844	13298.82
1.685	0.0006296376	13299.37
1.7025	0.0006335111	13299.92
1.72	0.0006368999	13300.46
1.7375	0.0006407173	13301.01
1.755	0.0006443156	13301.56
1.7725	0.0006479881	13302.1
1.79	0.0006512726	13302.65
1.8075	0.000655099	13303.2
1.825	0.0006585724	13303.75
1.8425	0.0006622961	13304.29
1.86	0.0006659225	13304.84
1.8775	0.0006690125	13305.39
1.895	0.0006729743	13305.93
1.9125	0.0006765639	13306.48
1.93	0.0006801697	13307.03
1.9475	0.0006835231	13307.58
1.965	0.0006869065	13308.12
1.9825	0.0006903809	13308.67
2	0.0006938653	13309.21
