Messtemperatur      21∞C
U-Bereich           -1.5V   bis 2V
Anzahl der Meﬂpunkte     200
delay nach Einstellen der Spannung  s
Strombegrenzung     1 A
Kontakt             x
Beleuchtung         d
Kommentar eingeben

voltage / V   current / A   time

-1.5	-0.006161344	13383.72
-1.4825	-0.004452432	13384.3
-1.465	-0.002896755	13384.85
-1.4475	-0.001410738	13385.39
-1.43	0.0001075747	13386.01
-1.4125	0.0007802839	13386.58
-1.395	0.003191032	13387.26
-1.3775	0.004694091	13387.83
-1.36	0.006292061	13388.38
-1.3425	0.007847467	13388.93
-1.325	0.00907282	13389.47
-1.3075	0.01095876	13390.15
-1.29	0.01229694	13390.72
-1.2725	0.0136224	13391.26
-1.255	0.01496783	13391.81
-1.2375	0.01664684	13392.36
-1.22	0.01796742	13392.91
-1.2025	0.01951028	13393.45
-1.185	0.02109269	13394
-1.1675	0.02258594	13394.55
-1.15	0.02439043	13395.09
-1.1325	0.0259191	13395.64
-1.115	0.02748308	13396.19
-1.0975	0.0288373	13396.73
-1.08	0.03043946	13397.28
-1.0625	0.03194565	13397.83
-1.045	0.03389176	13398.38
-1.0275	0.03662879	13398.92
-1.01	0.03897772	13399.47
-0.9925	0.04094588	13400.02
-0.975	0.04285653	13400.57
-0.9575	0.04495989	13401.11
-0.94	0.04710593	13401.66
-0.9225	0.04847936	13402.21
-0.905	0.05004877	13402.75
-0.8875	0.05125439	13403.3
-0.87	0.05280742	13403.85
-0.8525	0.05427261	13404.4
-0.835	0.05592371	13404.94
-0.8175	0.05691104	13405.49
-0.8	0.05835604	13406.04
-0.7825	0.06023673	13406.58
-0.765	0.06231207	13407.13
-0.7475	0.06379187	13407.68
-0.73	0.06427389	13408.22
-0.7125	0.06602838	13408.77
-0.695	0.06862707	13409.32
-0.6775	0.0695287	13409.87
-0.66	0.07188239	13410.41
-0.6425	0.07402597	13410.96
-0.625	0.07485464	13411.51
-0.6075	0.07658239	13412.05
-0.59	0.07710965	13412.6
-0.5725	0.07913277	13413.15
-0.555	0.08329529	13413.69
-0.5375	0.08326217	13414.24
-0.52	0.08689433	13414.79
-0.5025	0.08798078	13415.33
-0.485	0.08933582	13415.88
-0.4675	0.09139622	13416.43
-0.45	0.09362435	13416.98
-0.4325	0.09512357	13417.52
-0.415	0.09709258	13418.07
-0.3975	0.09888845	13418.62
-0.38	0.1010992	13419.16
-0.3625	0.1024899	13419.7
-0.345	0.1035518	13420.26
-0.3275	0.1040006	13420.8
-0.31	0.1047991	13421.34
-0.2925	0.1096687	13421.97
-0.275	0.1124828	13422.54
-0.2575	0.1140529	13423.09
-0.24	0.1157901	13423.64
-0.2225	0.1177543	13424.56
-0.205	0.1201217	13425.21
-0.1875	0.1226777	13426.27
-0.17	0.1240225	13426.83
-0.1525	0.1258627	13427.37
-0.135	0.1279171	13427.92
-0.1175	0.130409	13428.47
-0.1	0.1329822	13429.01
-0.0825	0.1349531	13429.56
-0.065	0.1370982	13430.11
-0.0475	0.1398575	13430.66
-0.03	0.1409526	13431.2
-0.0125	0.1409223	13431.75
0.005	0.1434986	13432.3
0.0225	0.1442115	13432.84
0.04	0.1450076	13433.39
0.0575	0.1479917	13433.94
0.075	0.1511985	13434.48
0.0925	0.1536298	13435.03
0.11	0.1552719	13435.58
0.1275	0.1577221	13436.12
0.145	0.1603265	13436.67
0.1625	0.1615681	13437.22
0.18	0.1649316	13437.76
0.1975	0.1682857	13438.31
0.215	0.1685346	13438.86
0.2325	0.1710609	13439.41
0.25	0.1740054	13439.95
0.2675	0.1757545	13440.5
0.285	0.1767944	13441.05
0.3025	0.1761722	13441.59
0.32	0.1790707	13442.14
0.3375	0.1801282	13442.69
0.355	0.1818569	13443.23
0.3725	0.1836321	13443.78
0.39	0.1848973	13444.33
0.4075	0.1869584	13444.87
0.425	0.188307	13445.42
0.4425	0.191042	13445.97
0.46	0.1918742	13446.51
0.4775	0.193629	13447.06
0.495	0.1958148	13447.61
0.5125	0.1965328	13448.16
0.53	0.1984901	13448.7
0.5475	0.2013338	13449.25
0.565	0.20096	13449.8
0.5825	0.2049773	13450.34
0.6	0.2076763	13450.89
0.6175	0.2097764	13451.44
0.635	0.2114421	13451.98
0.6525	0.2107052	13452.53
0.67	0.2111329	13453.08
0.6875	0.209789	13453.63
0.705	0.2147575	13454.17
0.7225	0.213761	13454.72
0.74	0.2133839	13455.27
0.7575	0.2159885	13455.81
0.775	0.2247521	13456.36
0.7925	0.2238843	13456.91
0.81	0.2263267	13457.46
0.8275	0.2242804	13458
0.845	0.2265406	13458.55
0.8625	0.2278285	13459.1
0.88	0.2340879	13459.64
0.8975	0.234043	13460.19
0.915	0.2362306	13460.74
0.9325	0.2383977	13461.28
0.95	0.2384178	13461.83
0.9675	0.2420778	13462.38
0.985	0.2446414	13462.92
1.0025	0.2441678	13463.47
1.02	0.245877	13464.02
1.0375	0.2462651	13464.56
1.055	0.2493729	13465.11
1.0725	0.250913	13465.66
1.09	0.2526786	13466.21
1.1075	0.2547461	13466.75
1.125	0.2523739	13467.3
1.1425	0.2545216	13467.85
1.16	0.2542307	13468.39
1.1775	0.2558151	13468.94
1.195	0.2658088	13469.49
1.2125	0.2664672	13470.04
1.23	0.2668405	13470.58
1.2475	0.2684281	13471.13
1.265	0.2698955	13471.68
1.2825	0.2697302	13472.22
1.3	0.2712424	13472.77
1.3175	0.2748756	13473.32
1.335	0.2766862	13473.87
1.3525	0.278414	13474.41
1.37	0.2784559	13474.96
1.3875	0.2831521	13475.51
1.405	0.2824482	13476.05
1.4225	0.2889788	13476.6
1.44	0.2891705	13477.15
1.4575	0.2926814	13477.69
1.475	0.2869298	13478.24
1.4925	0.2949719	13478.79
1.51	0.2968146	13479.33
1.5275	0.2991102	13479.88
1.545	0.2908978	13480.43
1.5625	0.2619137	13480.98
1.58	0.3048585	13481.52
1.5975	0.3062818	13482.07
1.615	0.3083878	13482.62
1.6325	0.3103492	13483.16
1.65	0.3132123	13483.71
1.6675	0.3141675	13484.26
1.685	0.3158236	13484.8
1.7025	0.3170461	13485.35
1.72	0.3196186	13485.9
1.7375	0.3215276	13486.45
1.755	0.3220845	13486.99
1.7725	0.3232793	13487.54
1.79	0.3261016	13488.09
1.8075	0.3266128	13488.63
1.825	0.3301884	13489.18
1.8425	0.3317767	13489.73
1.86	0.3328973	13490.28
1.8775	0.3332719	13490.82
1.895	0.3329034	13491.37
1.9125	0.3337063	13491.92
1.93	0.338909	13494.41
1.9475	0.3395981	13494.96
1.965	0.3423838	13495.51
1.9825	0.3447869	13496.05
2	0.3460568	13496.6
